Time [sec]	P [h Pa]	T [°C]	U [%]	Wsp [kn]	Wdir [°]	Altitude [m]	Geo Pot [m']
0         	1005.4  	23.00 	42   	3.1     	293     	0.0         	0.0         
1         	1005.3  	23.06 	42   	2.8     	293     	1.2         	1.2         
2         	1005.1  	23.11 	42   	2.5     	294     	2.4         	2.4         
3         	1005.0  	23.17 	41   	2.2     	294     	3.6         	3.6         
4         	1004.9  	23.23 	41   	1.9     	295     	4.7         	4.7         
5         	1004.7  	23.29 	41   	1.6     	296     	5.9         	5.9         
6         	1004.6  	23.34 	41   	1.3     	297     	7.1         	7.1         
7         	1004.4  	23.40 	40   	1.0     	299     	8.3         	8.3         
8         	1004.3  	23.45 	40   	0.7     	303     	9.5         	9.5         
9         	1004.2  	23.42 	40   	0.4     	315     	10.7        	10.7        
10        	1004.0  	23.39 	40   	0.2     	010     	11.9        	11.9        
11        	1003.9  	23.37 	40   	0.2     	052     	13.1        	13.0        
12        	1003.8  	23.34 	40   	0.2     	052     	14.2        	14.2        
13        	1003.6  	23.31 	40   	0.2     	052     	15.4        	15.4        
14        	1003.5  	23.28 	40   	0.2     	052     	16.6        	16.6        
15        	1003.4  	23.26 	40   	0.2     	052     	17.8        	17.8        
16        	1003.3  	23.23 	40   	0.2     	052     	19.0        	19.0        
17        	1003.1  	23.20 	40   	0.2     	052     	20.0        	20.0        
18        	1003.0  	23.18 	40   	0.2     	052     	20.8        	20.8        
19        	1002.9  	23.15 	41   	0.3     	052     	21.7        	21.6        
20        	1002.8  	23.12 	41   	0.3     	052     	22.5        	22.5        
21        	1002.7  	23.09 	41   	0.3     	052     	23.4        	23.3        
22        	1002.6  	23.07 	41   	0.3     	052     	24.2        	24.2        
23        	1002.5  	23.04 	41   	0.3     	052     	25.0        	25.0        
24        	1002.4  	23.07 	41   	0.3     	052     	25.9        	25.9        
25        	1002.3  	23.10 	41   	0.3     	052     	26.7        	26.7        
26        	1002.2  	23.13 	41   	0.3     	052     	27.6        	27.6        
27        	1002.1  	23.17 	41   	0.3     	052     	28.4        	28.4        
28        	1002.0  	23.20 	41   	0.3     	052     	29.3        	29.2        
29        	1001.9  	23.23 	41   	0.3     	052     	30.1        	30.1        
30        	1001.8  	23.27 	41   	0.4     	052     	31.0        	30.9        
31        	1001.7  	23.30 	41   	0.4     	052     	31.8        	31.8        
32        	1001.6  	23.33 	41   	0.4     	052     	32.7        	32.6        
33        	1001.5  	23.36 	41   	0.3     	052     	33.5        	33.5        
34        	1001.4  	23.40 	41   	0.3     	052     	34.3        	34.3        
35        	1001.4  	23.43 	40   	0.3     	052     	35.2        	35.2        
36        	1001.3  	23.46 	40   	0.3     	052     	36.0        	36.0        
37        	1001.2  	23.50 	40   	0.3     	052     	36.9        	36.8        
38        	1001.1  	23.53 	40   	0.3     	052     	37.7        	37.7        
39        	1001.0  	23.56 	40   	0.3     	052     	38.6        	38.5        
40        	1000.9  	23.55 	40   	0.3     	052     	39.4        	39.4        
41        	1000.9  	23.52 	40   	0.3     	052     	40.3        	40.2        
42        	1000.8  	23.49 	40   	0.3     	052     	40.2        	40.2        
43        	1000.9  	23.46 	40   	0.3     	052     	39.5        	39.5        
44        	1000.9  	23.43 	40   	0.3     	052     	38.8        	38.8        
45        	1001.0  	23.40 	40   	0.3     	052     	38.1        	38.1        
46        	1001.1  	23.37 	40   	0.3     	052     	37.4        	37.4        
47        	1001.2  	23.34 	40   	0.3     	052     	36.7        	36.7        
48        	1001.3  	23.31 	40   	0.2     	052     	36.0        	36.0        
49        	1001.3  	23.29 	40   	0.2     	052     	35.3        	35.3        
50        	1001.4  	23.26 	40   	0.2     	052     	34.6        	34.6        
51        	1001.5  	23.23 	40   	0.2     	052     	33.9        	33.9        
52        	1001.6  	23.20 	40   	0.2     	052     	33.3        	33.2        
53        	1001.7  	23.17 	40   	0.2     	052     	32.6        	32.5        
54        	1001.7  	23.14 	40   	0.2     	052     	31.9        	31.8        
55        	1001.8  	23.11 	40   	0.2     	052     	31.2        	31.1        
56        	1001.9  	23.13 	40   	0.2     	052     	30.5        	30.4        
57        	1002.0  	23.17 	40   	0.2     	052     	29.8        	29.8        
58        	1002.1  	23.21 	40   	0.2     	052     	29.1        	29.1        
59        	1002.1  	23.26 	40   	0.2     	052     	28.4        	28.4        
60        	1002.2  	23.30 	40   	0.2     	052     	27.7        	27.7        
61        	1002.3  	23.34 	40   	0.1     	052     	27.0        	27.0        
62        	1002.4  	23.39 	40   	0.1     	052     	26.3        	26.3        
63        	1002.5  	23.43 	40   	0.1     	052     	25.6        	25.6        
64        	1002.5  	23.47 	39   	0.1     	052     	24.9        	24.9        
65        	1002.6  	23.51 	39   	0.1     	052     	24.2        	24.2        
66        	1002.7  	23.56 	39   	0.1     	052     	23.5        	23.5        
67        	1002.8  	23.60 	39   	0.1     	052     	22.8        	22.8        
68        	1002.9  	23.64 	39   	0.1     	052     	22.1        	22.1        
69        	1002.9  	23.69 	39   	0.1     	052     	21.5        	21.4        
70        	1003.0  	23.73 	39   	0.1     	052     	20.8        	20.7        
71        	1003.1  	23.77 	39   	0.1     	052     	20.1        	20.0        
72        	1003.2  	23.78 	39   	0.1     	052     	19.4        	19.4        
73        	1003.2  	23.77 	39   	0.1     	052     	18.7        	18.7        
74        	1003.3  	23.75 	39   	0.1     	052     	18.0        	18.0        
75        	1003.4  	23.74 	38   	0.1     	052     	17.3        	17.3        
76        	1003.4  	23.72 	38   	0.1     	052     	16.6        	16.6        
77        	1003.5  	23.71 	38   	0.1     	052     	16.2        	16.2        
78        	1003.6  	23.69 	38   	0.1     	052     	15.8        	15.8        
79        	1003.6  	23.68 	38   	0.1     	052     	15.4        	15.4        
80        	1003.7  	23.66 	38   	0.1     	052     	15.0        	15.0        
81        	1003.7  	23.65 	38   	0.1     	052     	14.6        	14.6        
82        	1003.8  	23.63 	38   	0.1     	052     	14.2        	14.2        
83        	1003.8  	23.61 	38   	0.1     	052     	13.8        	13.7        
84        	1003.9  	23.60 	38   	0.1     	052     	13.3        	13.3        
85        	1003.9  	23.58 	38   	0.1     	052     	12.9        	12.9        
86        	1004.0  	23.57 	37   	0.1     	052     	12.5        	12.5        
87        	1004.0  	23.55 	37   	0.1     	052     	12.1        	12.1        
88        	1004.0  	23.54 	37   	0.1     	052     	11.7        	11.7        
89        	1004.1  	23.53 	37   	0.1     	052     	11.3        	11.3        
90        	1004.1  	23.52 	37   	0.1     	052     	10.9        	10.9        
91        	1004.2  	23.51 	37   	0.1     	052     	10.5        	10.5        
92        	1004.2  	23.51 	37   	0.1     	052     	10.1        	10.1        
93        	1004.3  	23.50 	37   	0.1     	052     	9.7         	9.6         
94        	1004.3  	23.49 	37   	0.1     	052     	9.2         	9.2         
95        	1004.4  	23.48 	37   	0.1     	052     	8.8         	8.8         
96        	1004.4  	23.47 	37   	0.1     	052     	8.4         	8.4         
97        	1004.5  	23.46 	37   	0.1     	052     	8.0         	8.0         
98        	1004.5  	23.45 	37   	0.1     	052     	7.6         	7.6         
99        	1004.6  	23.44 	37   	0.1     	052     	7.2         	7.2         
100       	1004.6  	23.44 	37   	0.1     	052     	6.8         	6.8         
101       	1004.7  	23.43 	37   	0.1     	052     	6.4         	6.4         
102       	1004.7  	23.42 	37   	0.1     	052     	6.0         	6.0         
103       	1004.7  	23.41 	37   	0.1     	052     	5.6         	5.6         
104       	1004.8  	23.40 	37   	0.1     	052     	5.2         	5.1         
105       	1004.8  	23.38 	37   	0.1     	052     	4.7         	4.7         
106       	1004.8  	23.36 	37   	0.1     	052     	4.4         	4.4         
107       	1004.9  	23.35 	37   	0.1     	052     	4.3         	4.3         
108       	1004.9  	23.33 	37   	0.1     	052     	4.3         	4.3         
109       	1004.9  	23.31 	37   	0.1     	052     	4.3         	4.3         
110       	1004.9  	23.29 	37   	0.1     	052     	4.3         	4.3         
111       	1004.9  	23.28 	37   	0.1     	052     	4.3         	4.3         
112       	1004.9  	23.26 	37   	0.1     	052     	4.3         	4.3         
113       	1004.9  	23.24 	37   	0.1     	052     	4.2         	4.2         
114       	1004.9  	23.22 	37   	0.1     	052     	4.2         	4.2         
115       	1004.9  	23.21 	37   	0.1     	052     	4.2         	4.2         
116       	1004.9  	23.19 	37   	0.1     	052     	4.2         	4.2         
117       	1004.9  	23.17 	37   	0.1     	052     	4.2         	4.2         
118       	1004.9  	23.15 	37   	0.0     	052     	4.2         	4.2         
119       	1004.9  	23.14 	37   	0.0     	052     	4.1         	4.1         
120       	1004.9  	23.18 	37   	0.0     	052     	4.1         	4.1         
121       	1004.9  	23.21 	37   	0.0     	052     	4.1         	4.1         
122       	1004.9  	23.25 	36   	0.0     	052     	4.1         	4.1         
123       	1004.9  	23.29 	36   	0.0     	052     	4.1         	4.1         
124       	1004.9  	23.33 	36   	0.0     	052     	4.1         	4.1         
125       	1004.9  	23.36 	36   	0.0     	052     	4.0         	4.0         
126       	1004.9  	23.40 	36   	0.0     	052     	4.0         	4.0         
127       	1004.9  	23.44 	36   	0.0     	052     	4.0         	4.0         
128       	1004.9  	23.47 	36   	0.0     	052     	4.0         	4.0         
129       	1004.9  	23.51 	36   	0.0     	052     	4.0         	4.0         
130       	1004.9  	23.55 	36   	0.0     	052     	4.0         	4.0         
131       	1004.9  	23.59 	36   	0.0     	052     	3.9         	3.9         
132       	1004.9  	23.62 	36   	0.0     	052     	3.9         	3.9         
133       	1004.9  	23.66 	35   	0.0     	052     	3.9         	3.9         
134       	1004.9  	23.70 	35   	0.0     	052     	3.9         	3.9         
135       	1005.0  	23.74 	35   	0.0     	052     	3.9         	3.9         
136       	1005.0  	23.73 	35   	0.0     	052     	3.9         	3.9         
137       	1005.0  	23.73 	35   	0.0     	052     	3.8         	3.8         
138       	1005.0  	23.72 	35   	0.0     	052     	3.8         	3.8         
139       	1005.0  	23.72 	35   	0.0     	052     	3.8         	3.8         
140       	1005.0  	23.71 	35   	0.0     	052     	3.8         	3.8         
141       	1005.0  	23.70 	34   	0.0     	052     	3.8         	3.8         
142       	1005.0  	23.70 	34   	0.0     	052     	3.8         	3.8         
143       	1005.0  	23.69 	34   	0.0     	052     	3.8         	3.8         
144       	1005.0  	23.69 	34   	0.0     	052     	3.8         	3.8         
145       	1005.0  	23.68 	34   	0.0     	052     	3.8         	3.8         
146       	1005.0  	23.68 	34   	0.0     	052     	3.8         	3.8         
147       	1005.0  	23.67 	34   	0.0     	052     	3.8         	3.8         
148       	1005.0  	23.66 	34   	0.0     	052     	3.8         	3.8         
149       	1005.0  	23.66 	33   	0.0     	052     	3.8         	3.8         
150       	1005.0  	23.65 	33   	0.0     	052     	3.8         	3.8         
151       	1005.0  	23.65 	33   	0.0     	052     	3.8         	3.8         
152       	1005.0  	23.67 	33   	0.0     	052     	3.8         	3.8         
153       	1005.0  	23.69 	33   	0.0     	052     	3.8         	3.8         
154       	1005.0  	23.72 	33   	0.0     	052     	3.8         	3.8         
155       	1005.0  	23.74 	33   	0.0     	052     	3.8         	3.8         
156       	1005.0  	23.77 	33   	0.0     	052     	3.8         	3.8         
157       	1005.0  	23.79 	33   	0.0     	052     	3.8         	3.8         
158       	1005.0  	23.82 	33   	0.0     	052     	3.8         	3.8         
159       	1005.0  	23.84 	33   	0.0     	052     	3.8         	3.8         
160       	1005.0  	23.87 	33   	0.0     	052     	3.8         	3.8         
161       	1005.0  	23.89 	33   	0.0     	052     	3.8         	3.8         
162       	1005.0  	23.92 	33   	0.0     	052     	3.8         	3.8         
163       	1005.0  	23.94 	33   	0.0     	052     	3.8         	3.8         
164       	1005.0  	23.97 	33   	0.0     	052     	3.8         	3.8         
165       	1005.0  	23.99 	33   	0.0     	052     	3.8         	3.8         
166       	1005.0  	24.02 	33   	0.0     	052     	3.8         	3.8         
167       	1005.0  	24.03 	33   	0.0     	052     	3.9         	3.8         
168       	1005.0  	24.02 	33   	0.0     	052     	3.9         	3.9         
169       	1005.0  	24.01 	33   	0.0     	052     	3.9         	3.9         
170       	1005.0  	24.00 	33   	0.0     	052     	3.9         	3.9         
171       	1005.0  	23.99 	33   	0.0     	052     	3.9         	3.9         
172       	1005.0  	23.97 	33   	0.0     	052     	3.9         	3.9         
173       	1005.0  	23.96 	32   	0.0     	052     	3.9         	3.9         
174       	1005.0  	23.95 	32   	0.0     	052     	3.9         	3.9         
175       	1005.0  	23.94 	32   	0.0     	052     	3.9         	3.9         
176       	1005.0  	23.93 	32   	0.0     	052     	3.9         	3.9         
177       	1004.9  	23.91 	32   	0.0     	052     	3.9         	3.9         
178       	1004.9  	23.90 	32   	0.0     	052     	3.9         	3.9         
179       	1004.9  	23.89 	32   	0.0     	052     	3.9         	3.9         
180       	1004.9  	23.88 	32   	0.0     	052     	3.9         	3.9         
181       	1004.9  	23.87 	32   	0.0     	052     	3.9         	3.9         
182       	1004.9  	23.86 	32   	0.0     	052     	3.9         	3.9         
183       	1004.9  	23.85 	32   	0.0     	052     	3.9         	3.9         
184       	1004.9  	23.86 	32   	0.0     	052     	3.9         	3.9         
185       	1004.9  	23.87 	32   	0.0     	052     	3.9         	3.9         
186       	1004.9  	23.88 	32   	0.0     	052     	3.9         	3.9         
187       	1004.9  	23.89 	32   	0.0     	052     	3.9         	3.9         
188       	1004.9  	23.90 	32   	0.0     	052     	3.9         	3.9         
189       	1004.9  	23.91 	32   	0.0     	052     	3.9         	3.9         
190       	1004.9  	23.92 	32   	0.0     	052     	3.9         	3.9         
191       	1004.9  	23.93 	32   	0.0     	052     	3.9         	3.9         
192       	1004.9  	23.94 	33   	0.0     	052     	3.9         	3.9         
193       	1004.9  	23.95 	33   	0.0     	052     	4.0         	3.9         
194       	1004.9  	23.96 	33   	0.0     	052     	4.0         	4.0         
195       	1004.9  	23.97 	33   	0.0     	052     	4.0         	4.0         
196       	1004.9  	23.98 	33   	0.0     	052     	4.0         	4.0         
197       	1004.9  	23.99 	33   	0.0     	052     	4.0         	4.0         
198       	1004.9  	24.00 	33   	0.0     	052     	4.0         	4.0         
199       	1004.9  	24.00 	33   	0.0     	052     	4.0         	4.0         
200       	1004.9  	23.99 	33   	0.0     	052     	4.0         	4.0         
201       	1004.9  	23.98 	33   	0.0     	052     	4.0         	4.0         
202       	1004.9  	23.96 	34   	0.0     	052     	4.0         	4.0         
203       	1004.9  	23.95 	34   	0.0     	052     	4.1         	4.1         
204       	1004.9  	23.94 	34   	0.0     	052     	4.1         	4.1         
205       	1004.9  	23.93 	34   	0.0     	052     	4.1         	4.1         
206       	1004.9  	23.92 	34   	0.1     	052     	4.1         	4.1         
207       	1004.9  	23.90 	34   	0.1     	052     	4.1         	4.1         
208       	1004.9  	23.89 	34   	0.1     	052     	4.1         	4.1         
209       	1004.9  	23.88 	34   	0.1     	052     	4.1         	4.1         
210       	1004.9  	23.87 	34   	0.1     	052     	4.2         	4.1         
211       	1004.9  	23.86 	34   	0.1     	052     	4.2         	4.2         
212       	1004.9  	23.84 	34   	0.1     	052     	4.2         	4.2         
213       	1004.9  	23.83 	34   	0.1     	052     	4.2         	4.2         
214       	1004.9  	23.82 	34   	0.1     	052     	4.2         	4.2         
215       	1004.9  	23.81 	34   	0.1     	052     	4.2         	4.2         
216       	1004.9  	23.83 	35   	0.1     	052     	4.2         	4.2         
217       	1004.9  	23.84 	35   	0.1     	052     	4.2         	4.2         
218       	1004.9  	23.85 	35   	0.1     	052     	4.3         	4.3         
219       	1004.9  	23.87 	35   	0.1     	052     	4.3         	4.3         
220       	1004.9  	23.88 	35   	0.1     	052     	4.3         	4.3         
221       	1004.9  	23.89 	35   	0.1     	049     	4.3         	4.3         
222       	1004.9  	23.91 	35   	0.1     	046     	4.3         	4.3         
223       	1004.9  	23.92 	35   	0.1     	043     	4.3         	4.3         
224       	1004.9  	23.94 	35   	0.1     	040     	4.3         	4.3         
225       	1004.9  	23.95 	35   	0.1     	036     	4.4         	4.3         
226       	1004.9  	23.96 	35   	0.1     	033     	4.4         	4.4         
227       	1004.9  	23.98 	35   	0.1     	030     	4.4         	4.4         
228       	1004.9  	23.99 	35   	0.1     	027     	4.5         	4.5         
229       	1004.9  	24.00 	36   	0.1     	024     	4.5         	4.5         
230       	1004.9  	24.02 	36   	0.1     	021     	4.6         	4.6         
231       	1004.9  	24.03 	36   	0.1     	018     	4.6         	4.6         
232       	1004.9  	23.97 	36   	0.2     	015     	4.7         	4.7         
233       	1004.9  	23.91 	36   	0.2     	012     	4.7         	4.7         
234       	1004.8  	23.85 	36   	0.2     	009     	4.8         	4.8         
235       	1004.8  	23.79 	36   	0.2     	007     	4.8         	4.8         
236       	1004.8  	23.73 	36   	0.2     	004     	4.9         	4.9         
237       	1004.8  	23.67 	36   	0.2     	002     	4.9         	4.9         
238       	1004.8  	23.61 	36   	0.2     	360     	5.0         	5.0         
239       	1004.8  	23.55 	36   	0.2     	358     	5.0         	5.0         
240       	1004.8  	23.49 	37   	0.2     	356     	5.1         	5.1         
241       	1004.8  	23.43 	37   	0.2     	355     	5.1         	5.1         
242       	1004.8  	23.37 	37   	0.2     	355     	5.2         	5.2         
243       	1004.8  	23.31 	37   	0.2     	355     	5.2         	5.2         
244       	1004.8  	23.25 	37   	0.2     	355     	5.3         	5.3         
245       	1004.8  	23.19 	37   	0.2     	355     	5.3         	5.3         
246       	1004.8  	23.13 	37   	0.2     	355     	5.4         	5.4         
247       	1004.8  	23.07 	38   	0.2     	355     	5.4         	5.4         
248       	1004.8  	23.05 	38   	0.2     	355     	5.5         	5.5         
249       	1004.8  	23.04 	38   	0.2     	355     	5.5         	5.5         
250       	1004.8  	23.02 	38   	0.2     	355     	5.6         	5.6         
251       	1004.7  	23.00 	38   	0.2     	356     	5.6         	5.6         
252       	1004.7  	22.99 	38   	0.2     	356     	5.7         	5.7         
253       	1004.7  	22.97 	38   	0.2     	356     	5.7         	5.7         
254       	1004.7  	22.95 	39   	0.2     	356     	5.8         	5.8         
255       	1004.7  	22.94 	39   	0.2     	356     	5.8         	5.8         
256       	1004.7  	22.92 	39   	0.2     	356     	5.9         	5.9         
257       	1004.7  	22.90 	39   	0.2     	356     	5.9         	5.9         
